Time - Fc (N,Amplitude - Fc (N
0,0
0.002,0.0376909
0.004,0.0753298
0.006,0.112863
0.008,0.150237
0.01,0.187399
0.012,0.224296
0.014,0.260875
0.016,0.297083
0.018,0.33287
0.02,0.368184
0.022,0.402974
0.024,0.437191
0.026,0.470786
0.028,0.50371
0.03,0.535917
0.032,0.567359
0.034,0.597993
0.036,0.627773
0.038,0.656657
0.04,0.684604
0.042,0.711572
0.044,0.737523
0.046,0.76242
0.048,0.786227
0.05,0.808908
0.052,0.830432
0.054,0.850767
0.056,0.869883
0.058,0.887752
0.06,0.904349
0.062,0.919649
0.064,0.933629
0.066,0.94627
0.068,0.957552
0.07,0.967459
0.072,0.975977
0.074,0.983091
0.076,0.988793
0.078,0.993072
0.08,0.995922
0.082,0.997339
0.084,0.99732
0.086,0.995865
0.088,0.992975
0.09,0.988654
0.092,0.982908
0.094,0.975743
0.096,0.967171
0.098,0.957203
0.1,0.945853
0.102,0.933137
0.104,0.919073
0.106,0.90368
0.108,0.88698
0.11,0.868998
0.112,0.849758
0.114,0.829288
0.116,0.807617
0.118,0.784776
0.12,0.760798
0.122,0.735718
0.124,0.70957
0.126,0.682392
0.128,0.654225
0.13,0.625107
0.132,0.595081
0.134,0.564191
0.136,0.53248
0.138,0.499995
0.14,0.466783
0.142,0.432891
0.144,0.398368
0.146,0.363265
0.148,0.327632
0.15,0.291521
0.152,0.254985
0.154,0.218076
0.156,0.180848
0.158,0.143355
0.16,0.105652
0.162,0.0677932
0.164,0.0298344
0.166,-0.00816938
0.168,-0.0461626
0.17,-0.0840899
0.172,-0.121896
0.174,-0.159525
0.176,-0.196923
0.178,-0.234034
0.18,-0.270805
0.182,-0.30718
0.184,-0.343108
0.186,-0.378536
0.188,-0.41341
0.19,-0.44768
0.192,-0.481296
0.194,-0.514209
0.196,-0.546368
0.198,-0.577728
0.2,-0.608242
0.202,-0.637865
0.204,-0.666553
0.206,-0.694263
0.208,-0.720956
0.21,-0.74659
0.212,-0.771128
0.214,-0.794534
0.216,-0.816773
0.218,-0.837811
0.22,-0.857617
0.222,-0.876163
0.224,-0.893419
0.226,-0.90936
0.228,-0.923963
0.23,-0.937204
0.232,-0.949065
0.234,-0.959527
0.236,-0.968575
0.238,-0.976193
0.24,-0.982372
0.242,-0.987101
0.244,-0.990372
0.246,-0.99218
0.248,-0.992523
0.25,-0.991398
0.252,-0.988808
0.254,-0.984755
0.256,-0.979245
0.258,-0.972286
0.26,-0.963888
0.262,-0.954061
0.264,-0.942821
0.266,-0.930184
0.268,-0.916168
0.27,-0.900792
0.272,-0.884081
0.274,-0.866057
0.276,-0.846747
0.278,-0.826179
0.28,-0.804384
0.282,-0.781393
0.284,-0.75724
0.286,-0.731961
0.288,-0.705592
0.29,-0.678174
0.292,-0.649745
0.294,-0.620348
0.296,-0.590027
0.298,-0.558826
0.3,-0.526792
0.302,-0.493971
0.304,-0.460413
0.306,-0.426168
0.308,-0.391285
0.31,-0.355818
0.312,-0.319818
0.314,-0.283339
0.316,-0.246436
0.318,-0.209164
0.32,-0.171578
0.322,-0.133734
0.324,-0.0956889
0.326,-0.0574993
0.328,-0.0192223
0.33,0.0190848
0.332,0.0573646
0.334,0.0955599
0.336,0.133613
0.338,0.171468
0.34,0.209067
0.342,0.246353
0.344,0.283272
0.346,0.319766
0.348,0.355782
0.35,0.391265
0.352,0.426162
0.354,0.46042
0.356,0.493987
0.358,0.526813
0.36,0.558847
0.362,0.590042
0.364,0.620351
0.366,0.649727
0.368,0.678125
0.37,0.705504
0.372,0.73182
0.374,0.757035
0.376,0.781109
0.378,0.804007
0.38,0.825692
0.382,0.846133
0.384,0.865297
0.386,0.883155
0.388,0.89968
0.39,0.914847
0.392,0.928632
0.394,0.941013
0.396,0.951972
0.398,0.961492
0.4,0.969557
0.402,0.976155
0.404,0.981275
0.406,0.98491
0.408,0.987052
0.41,0.987699
0.412,0.986849
0.414,0.984503
0.416,0.980663
0.418,0.975335
0.42,0.968527
0.422,0.960248
0.424,0.95051
0.426,0.939328
0.428,0.926719
0.43,0.9127
0.432,0.897293
0.434,0.880521
0.436,0.862409
0.438,0.842984
0.44,0.822274
0.442,0.800312
0.444,0.77713
0.446,0.752763
0.448,0.727247
0.45,0.700622
0.452,0.672928
0.454,0.644205
0.456,0.614499
0.458,0.583854
0.46,0.552316
0.462,0.519933
0.464,0.486755
0.466,0.452832
0.468,0.418215
0.47,0.382958
0.472,0.347113
0.474,0.310736
0.476,0.273882
0.478,0.236608
0.48,0.19897
0.482,0.161025
0.484,0.122833
0.486,0.0844514
0.488,0.0459389
0.49,0.00735463
0.492,-0.0312421
0.494,-0.0697922
0.496,-0.108236
0.498,-0.146515
0.5,-0.184571
0.502,-0.222343
0.504,-0.259775
0.506,-0.296809
0.508,-0.333387
0.51,-0.369454
0.512,-0.404953
0.514,-0.439829
0.516,-0.474029
0.518,-0.5075
0.52,-0.540189
0.522,-0.572047
0.524,-0.603023
0.526,-0.633071
0.528,-0.662142
0.53,-0.690192
0.532,-0.717177
0.534,-0.743055
0.536,-0.767786
0.538,-0.791332
0.54,-0.813654
0.542,-0.834719
0.544,-0.854493
0.546,-0.872946
0.548,-0.890048
0.55,-0.905772
0.552,-0.920094
0.554,-0.932991
0.556,-0.944442
0.558,-0.954429
0.56,-0.962937
0.562,-0.969951
0.564,-0.97546
0.566,-0.979456
0.568,-0.98193
0.57,-0.98288
0.572,-0.982303
0.574,-0.980199
0.576,-0.976571
0.578,-0.971425
0.58,-0.964767
0.582,-0.956608
0.584,-0.94696
0.586,-0.935837
0.588,-0.923256
0.59,-0.909237
0.592,-0.8938
0.594,-0.876969
0.596,-0.858771
0.598,-0.839232
0.6,-0.818384
0.602,-0.796257
0.604,-0.772887
0.606,-0.748309
0.608,-0.722561
0.61,-0.695683
0.612,-0.667717
0.614,-0.638706
0.616,-0.608695
0.618,-0.577731
0.62,-0.545862
0.622,-0.513137
0.624,-0.479608
0.626,-0.445327
0.628,-0.410346
0.63,-0.374722
0.632,-0.338508
0.634,-0.301763
0.636,-0.264544
0.638,-0.226908
0.64,-0.188914
0.642,-0.150623
0.644,-0.112094
0.646,-0.0733882
0.648,-0.0345656
0.65,0.00431245
0.652,0.0431849
0.654,0.0819906
0.656,0.120668
0.658,0.159157
0.66,0.197397
0.662,0.235327
0.664,0.272887
0.666,0.310018
0.668,0.346661
0.67,0.382759
0.672,0.418254
0.674,0.45309
0.676,0.487212
0.678,0.520566
0.68,0.553099
0.682,0.584758
0.684,0.615495
0.686,0.645259
0.688,0.674004
0.69,0.701683
0.692,0.728254
0.694,0.753672
0.696,0.777898
0.698,0.800892
0.7,0.822618
0.702,0.843042
0.704,0.862129
0.706,0.879851
0.708,0.896177
0.71,0.911082
0.712,0.924541
0.714,0.936533
0.716,0.947038
0.718,0.956039
0.72,0.963521
0.722,0.969471
0.724,0.973881
0.726,0.976742
0.728,0.978049
0.73,0.977799
0.732,0.975993
0.734,0.972633
0.736,0.967723
0.738,0.961272
0.74,0.953288
0.742,0.943784
0.744,0.932774
0.746,0.920277
0.748,0.90631
0.75,0.890897
0.752,0.87406
0.754,0.855827
0.756,0.836226
0.758,0.815289
0.76,0.793047
0.762,0.769536
0.764,0.744794
0.766,0.71886
0.768,0.691774
0.77,0.66358
0.772,0.634322
0.774,0.604048
0.776,0.572804
0.778,0.540642
0.78,0.507612
0.782,0.473766
0.784,0.43916
0.786,0.403848
0.788,0.367886
0.79,0.331333
0.792,0.294247
0.794,0.256686
0.796,0.218712
0.798,0.180386
0.8,0.141768
0.802,0.102921
0.804,0.0639077
0.806,0.0247902
0.808,-0.0143683
0.81,-0.0535047
0.812,-0.092556
0.814,-0.131459
0.816,-0.170151
0.818,-0.20857
0.82,-0.246654
0.822,-0.28434
0.824,-0.321569
0.826,-0.358279
0.828,-0.394412
0.83,-0.429909
0.832,-0.464712
0.834,-0.498764
0.836,-0.532011
0.838,-0.564398
0.84,-0.595873
0.842,-0.626385
0.844,-0.655883
0.846,-0.684319
0.848,-0.711648
0.85,-0.737825
0.852,-0.762806
0.854,-0.786552
0.856,-0.809022
0.858,-0.83018
0.86,-0.849992
0.862,-0.868424
0.864,-0.885447
0.866,-0.901031
0.868,-0.915153
0.87,-0.927787
0.872,-0.938913
0.874,-0.948513
0.876,-0.95657
0.878,-0.963071
0.88,-0.968004
0.882,-0.971362
0.884,-0.973137
0.886,-0.973327
0.888,-0.971931
0.89,-0.96895
0.892,-0.96439
0.894,-0.958256
0.896,-0.950559
0.898,-0.94131
0.9,-0.930524
0.902,-0.918219
0.904,-0.904413
0.906,-0.889128
0.908,-0.872391
0.91,-0.854226
0.912,-0.834664
0.914,-0.813736
0.916,-0.791475
0.918,-0.767919
0.92,-0.743104
0.922,-0.717072
0.924,-0.689864
0.926,-0.661525
0.928,-0.632101
0.93,-0.601639
0.932,-0.57019
0.934,-0.537804
0.936,-0.504535
0.938,-0.470436
0.94,-0.435564
0.942,-0.399976
0.944,-0.363729
0.946,-0.326884
0.948,-0.2895
0.95,-0.251639
0.952,-0.213363
0.954,-0.174735
0.956,-0.135819
0.958,-0.0966778
0.96,-0.0573763
0.962,-0.0179794
0.964,0.0214481
0.966,0.0608413
0.968,0.100135
0.97,0.139265
0.972,0.178165
0.974,0.216773
0.976,0.255024
0.978,0.292854
0.98,0.330202
0.982,0.367004
0.984,0.403201
0.986,0.438732
0.988,0.473539
0.99,0.507562
0.992,0.540747
0.994,0.573037
0.996,0.604379
0.998,0.63472
1,0.664011
1.002,0.692201
1.004,0.719245
1.006,0.745096
1.008,0.769712
1.01,0.793051
1.012,0.815075
1.014,0.835745
1.016,0.855028
1.018,0.872891
1.02,0.889303
1.022,0.904238
1.024,0.917669
1.026,0.929574
1.028,0.939933
1.03,0.948727
1.032,0.955942
1.034,0.961566
1.036,0.965587
1.038,0.968
1.04,0.968799
1.042,0.967983
1.044,0.965553
1.046,0.961511
1.048,0.955865
1.05,0.948623
1.052,0.939797
1.054,0.929401
1.056,0.917452
1.058,0.90397
1.06,0.888975
1.062,0.872494
1.064,0.854553
1.066,0.835182
1.068,0.814412
1.07,0.792279
1.072,0.768818
1.074,0.744068
1.076,0.718071
1.078,0.69087
1.08,0.66251
1.082,0.633038
1.084,0.602503
1.086,0.570956
1.088,0.53845
1.09,0.50504
1.092,0.47078
1.094,0.435728
1.096,0.399944
1.098,0.363486
1.1,0.326416
1.102,0.288796
1.104,0.250689
1.106,0.21216
1.108,0.173272
1.11,0.134092
1.112,0.0946852
1.114,0.0551177
1.116,0.0154564
1.118,-0.0242319
1.12,-0.0638801
1.122,-0.103422
1.124,-0.142789
1.126,-0.181917
1.128,-0.220738
1.13,-0.259188
1.132,-0.2972
1.134,-0.334711
1.136,-0.371656
1.138,-0.407975
1.14,-0.443604
1.142,-0.478483
1.144,-0.512553
1.146,-0.545755
1.148,-0.578035
1.15,-0.609336
1.152,-0.639605
1.154,-0.668791
1.156,-0.696843
1.158,-0.723714
1.16,-0.749358
1.162,-0.773731
1.164,-0.79679
1.166,-0.818498
1.168,-0.838815
1.17,-0.857708
1.172,-0.875144
1.174,-0.891092
1.176,-0.905526
1.178,-0.918419
1.18,-0.92975
1.182,-0.939499
1.184,-0.947648
1.186,-0.954184
1.188,-0.959095
1.19,-0.962371
1.192,-0.964007
1.194,-0.964
1.196,-0.962348
1.198,-0.959055
1.2,-0.954125
1.202,-0.947566
1.204,-0.93939
1.206,-0.929608
1.208,-0.918238
1.21,-0.905299
1.212,-0.890812
1.214,-0.874801
1.216,-0.857294
1.218,-0.838319
1.22,-0.817909
1.222,-0.796099
1.224,-0.772925
1.226,-0.748426
1.228,-0.722645
1.23,-0.695624
1.232,-0.66741
1.234,-0.638051
1.236,-0.607597
1.238,-0.5761
1.24,-0.543613
1.242,-0.510192
1.244,-0.475894
1.246,-0.440778
1.248,-0.404904
1.25,-0.368333
1.252,-0.331128
1.254,-0.293352
1.256,-0.255071
1.258,-0.216351
1.26,-0.177257
1.262,-0.137857
1.264,-0.0982187
1.266,-0.0584105
1.268,-0.0185008
1.27,0.0214416
1.272,0.0613479
1.274,0.101149
1.276,0.140777
1.278,0.180162
1.28,0.219237
1.282,0.257934
1.284,0.296187
1.286,0.333928
1.288,0.371093
1.29,0.407618
1.292,0.443438
1.294,0.478491
1.296,0.512717
1.298,0.546057
1.3,0.578451
1.302,0.609845
1.304,0.640182
1.306,0.669411
1.308,0.69748
1.31,0.72434
1.312,0.749944
1.314,0.774247
1.316,0.797208
1.318,0.818784
1.32,0.83894
1.322,0.857638
1.324,0.874847
1.326,0.890536
1.328,0.904677
1.33,0.917244
1.332,0.928217
1.334,0.937574
1.336,0.9453
1.338,0.951381
1.34,0.955804
1.342,0.958563
1.344,0.959651
1.346,0.959066
1.348,0.95681
1.35,0.952885
1.352,0.947297
1.354,0.940056
1.356,0.931174
1.358,0.920666
1.36,0.908549
1.362,0.894846
1.364,0.879578
1.366,0.862772
1.368,0.844457
1.37,0.824665
1.372,0.80343
1.374,0.780788
1.376,0.756779
1.378,0.731445
1.38,0.704829
1.382,0.676977
1.384,0.647938
1.386,0.617763
1.388,0.586504
1.39,0.554215
1.392,0.520954
1.394,0.486777
1.396,0.451745
1.398,0.41592
1.4,0.379363
1.402,0.342138
1.404,0.304312
1.406,0.26595
1.408,0.227119
1.41,0.187888
1.412,0.148326
1.414,0.108502
1.416,0.0684866
1.418,0.0283495
1.42,-0.0118382
1.422,-0.0520059
1.424,-0.0920826
1.426,-0.131998
1.428,-0.171681
1.43,-0.211061
1.432,-0.25007
1.434,-0.288639
1.436,-0.326698
1.438,-0.364181
1.44,-0.401021
1.442,-0.437153
1.444,-0.472513
1.446,-0.507039
1.448,-0.540667
1.45,-0.57334
1.452,-0.604999
1.454,-0.635587
1.456,-0.665051
1.458,-0.693336
1.46,-0.720394
1.462,-0.746175
1.464,-0.770635
1.466,-0.793727
1.468,-0.815413
1.47,-0.835651
1.472,-0.854407
1.474,-0.871647
1.476,-0.887338
1.478,-0.901454
1.48,-0.913968
1.482,-0.924858
1.484,-0.934103
1.486,-0.941688
1.488,-0.947597
1.49,-0.951821
1.492,-0.95435
1.494,-0.95518
1.496,-0.954308
1.498,-0.951737
1.5,-0.94747
1.502,-0.941513
1.504,-0.933878
1.506,-0.924577
1.508,-0.913626
1.51,-0.901045
1.512,-0.886855
1.514,-0.871081
1.516,-0.853752
1.518,-0.834896
1.52,-0.814548
1.522,-0.792744
1.524,-0.769522
1.526,-0.744923
1.528,-0.718991
1.53,-0.691771
1.532,-0.663313
1.534,-0.633667
1.536,-0.602885
1.538,-0.571022
1.54,-0.538136
1.542,-0.504284
1.544,-0.469527
1.546,-0.433928
1.548,-0.397549
1.55,-0.360456
1.552,-0.322716
1.554,-0.284395
1.556,-0.245563
1.558,-0.206289
1.56,-0.166643
1.562,-0.126698
1.564,-0.0865234
1.566,-0.046193
1.568,-0.00577874
1.57,0.0346465
1.572,0.0750101
1.574,0.115239
1.576,0.155261
1.578,0.195004
1.58,0.234397
1.582,0.273367
1.584,0.311845
1.586,0.349761
1.588,0.387046
1.59,0.423633
1.592,0.459456
1.594,0.49445
1.596,0.528551
1.598,0.561698
1.6,0.593829
1.602,0.624888
1.604,0.654817
1.606,0.683562
1.608,0.71107
1.61,0.737291
1.612,0.762178
1.614,0.785685
1.616,0.807769
1.618,0.828389
1.62,0.847508
1.622,0.865091
1.624,0.881105
1.626,0.89552
1.628,0.908311
1.63,0.919453
1.632,0.928925
1.634,0.936711
1.636,0.942795
1.638,0.947165
1.64,0.949814
1.642,0.950736
1.644,0.949929
1.646,0.947393
1.648,0.943133
1.65,0.937156
1.652,0.929473
1.654,0.920096
1.656,0.909043
1.658,0.896333
1.66,0.881989
1.662,0.866036
1.664,0.848504
1.666,0.829423
1.668,0.808828
1.67,0.786756
1.672,0.763247
1.674,0.738344
1.676,0.712091
1.678,0.684537
1.68,0.65573
1.682,0.625724
1.684,0.594573
1.686,0.562334
1.688,0.529065
1.69,0.494827
1.692,0.459683
1.694,0.423696
1.696,0.386932
1.698,0.349458
1.7,0.311344
1.702,0.272657
1.704,0.23347
1.706,0.193854
1.708,0.153882
1.71,0.113627
1.712,0.073162
1.714,0.0325625
1.716,-0.0080975
1.718,-0.0487432
1.72,-0.0892998
1.722,-0.129693
1.724,-0.169848
1.726,-0.209691
1.728,-0.249148
1.73,-0.288148
1.732,-0.326617
1.734,-0.364485
1.736,-0.401683
1.738,-0.43814
1.74,-0.47379
1.742,-0.508567
1.744,-0.542406
1.746,-0.575245
1.748,-0.607022
1.75,-0.637679
1.752,-0.667159
1.754,-0.695407
1.756,-0.722371
1.758,-0.747999
1.76,-0.772245
1.762,-0.795064
1.764,-0.816411
1.766,-0.836249
1.768,-0.854538
1.77,-0.871246
1.772,-0.886341
1.774,-0.899794
1.776,-0.91158
1.778,-0.921676
1.78,-0.930064
1.782,-0.936727
1.784,-0.941653
1.786,-0.944831
1.788,-0.946255
1.79,-0.945923
1.792,-0.943834
1.794,-0.939992
1.796,-0.934403
1.798,-0.927077
1.8,-0.918027
1.802,-0.90727
1.804,-0.894826
1.806,-0.880716
1.808,-0.864966
1.81,-0.847606
1.812,-0.828667
1.814,-0.808184
1.816,-0.786195
1.818,-0.762741
1.82,-0.737863
1.822,-0.71161
1.824,-0.684029
1.826,-0.655171
1.828,-0.62509
1.83,-0.593841
1.832,-0.561483
1.834,-0.528076
1.836,-0.493681
1.838,-0.458364
1.84,-0.422189
1.842,-0.385224
1.844,-0.347537
1.846,-0.3092
1.848,-0.270284
1.85,-0.230862
1.852,-0.191006
1.854,-0.150793
1.856,-0.110296
1.858,-0.0695917
1.86,-0.0287567
1.862,0.0121327
1.864,0.0529998
1.866,0.093768
1.868,0.134361
1.87,0.174702
1.872,0.214715
1.874,0.254325
1.876,0.293458
1.878,0.33204
1.88,0.369998
1.882,0.407261
1.884,0.443758
1.886,0.479421
1.888,0.514181
1.89,0.547974
1.892,0.580736
1.894,0.612404
1.896,0.642918
1.898,0.672221
1.9,0.700257
1.902,0.726972
1.904,0.752317
1.906,0.776242
1.908,0.798703
1.91,0.819656
1.912,0.839061
1.914,0.856882
1.916,0.873084
1.918,0.887635
1.92,0.900509
1.922,0.91168
1.924,0.921127
1.926,0.928831
1.928,0.934777
1.93,0.938953
1.932,0.941352
1.934,0.941967
1.936,0.940797
1.938,0.937845
1.94,0.933114
1.942,0.926614
1.944,0.918356
1.946,0.908356
1.948,0.896631
1.95,0.883205
1.952,0.868101
1.954,0.851348
1.956,0.832977
1.958,0.813023
1.96,0.791523
1.962,0.768517
1.964,0.74405
1.966,0.718167
1.968,0.690916
1.97,0.662351
1.972,0.632523
1.974,0.601491
1.976,0.569312
1.978,0.536048
1.98,0.501761
1.982,0.466518
1.984,0.430384
1.986,0.393429
1.988,0.355722
1.99,0.317337
1.992,0.278344
1.994,0.23882
1.996,0.198839
1.998,0.158478
2,0.117813
2.002,0.0769229
2.004,0.035885
2.006,-0.00522194
2.008,-0.0463193
2.01,-0.0873284
2.012,-0.128171
2.014,-0.168768
2.016,-0.209042
2.018,-0.248916
2.02,-0.288314
2.022,-0.327159
2.024,-0.365377
2.026,-0.402894
2.028,-0.439639
2.03,-0.47554
2.032,-0.510528
2.034,-0.544536
2.036,-0.577499
2.038,-0.609352
2.04,-0.640034
2.042,-0.669486
2.044,-0.69765
2.046,-0.724473
2.048,-0.749902
2.05,-0.773887
2.052,-0.796383
2.054,-0.817346
2.056,-0.836734
2.058,-0.85451
2.06,-0.87064
2.062,-0.88509
2.064,-0.897834
2.066,-0.908847
2.068,-0.918105
2.07,-0.925592
2.072,-0.931292
2.074,-0.935194
2.076,-0.937289
2.078,-0.937573
2.08,-0.936045
2.082,-0.932707
2.084,-0.927566
2.086,-0.92063
2.088,-0.911913
2.09,-0.901432
2.092,-0.889204
2.094,-0.875255
2.096,-0.859611
2.098,-0.842301
2.1,-0.823358
2.102,-0.802819
2.104,-0.780723
2.106,-0.757113
2.108,-0.732033
2.11,-0.705533
2.112,-0.677662
2.114,-0.648476
2.116,-0.61803
2.118,-0.586383
2.12,-0.553596
2.122,-0.519733
2.124,-0.484858
2.126,-0.449041
2.128,-0.412349
2.13,-0.374855
2.132,-0.336631
2.134,-0.297751
2.136,-0.258291
2.138,-0.218328
2.14,-0.177938
2.142,-0.137202
2.144,-0.0961972
2.146,-0.0550049
2.148,-0.0137049
2.15,0.0276222
2.152,0.0688957
2.154,0.110035
2.156,0.15096
2.158,0.19159
2.16,0.231846
2.162,0.27165
2.164,0.310922
2.166,0.349587
2.168,0.387568
2.17,0.424792
2.172,0.461184
2.174,0.496673
2.176,0.531191
2.178,0.564668
2.18,0.597039
2.182,0.62824
2.184,0.658209
2.186,0.686889
2.188,0.714221
2.19,0.740152
2.192,0.764631
2.194,0.787608
2.196,0.80904
2.198,0.828882
2.2,0.847097
2.202,0.863646
2.204,0.878499
2.206,0.891623
2.208,0.902995
2.21,0.91259
2.212,0.920389
2.214,0.926376
2.216,0.93054
2.218,0.93287
2.22,0.933363
2.222,0.932017
2.224,0.928834
2.226,0.92382
2.228,0.916983
2.23,0.908337
2.232,0.8979
2.234,0.885689
2.236,0.87173
2.238,0.85605
2.24,0.838678
2.242,0.819649
2.244,0.799
2.246,0.776771
2.248,0.753006
2.25,0.727751
2.252,0.701057
2.254,0.672974
2.256,0.643559
2.258,0.61287
2.26,0.580966
2.262,0.547911
2.264,0.51377
2.266,0.47861
2.268,0.442501
2.27,0.405515
2.272,0.367723
2.274,0.329201
2.276,0.290026
2.278,0.250275
2.28,0.210026
2.282,0.169359
2.284,0.128356
2.286,0.0870978
2.288,0.0456659
2.29,0.00414287
2.292,-0.0373886
2.294,-0.078846
2.296,-0.120147
2.298,-0.161208
2.3,-0.201949
2.302,-0.242288
2.304,-0.282145
2.306,-0.321439
2.308,-0.360093
2.31,-0.398029
2.312,-0.435171
2.314,-0.471445
2.316,-0.506778
2.318,-0.5411
2.32,-0.574342
2.322,-0.606436
2.324,-0.637319
2.326,-0.666929
2.328,-0.695206
2.33,-0.722092
2.332,-0.747535
2.334,-0.771482
2.336,-0.793885
2.338,-0.8147
2.34,-0.833883
2.342,-0.851396
2.344,-0.867204
2.346,-0.881274
2.348,-0.893578
2.35,-0.90409
2.352,-0.912789
2.354,-0.919657
2.356,-0.924679
2.358,-0.927846
2.36,-0.92915
2.362,-0.928588
2.364,-0.926161
2.366,-0.921873
2.368,-0.915732
2.37,-0.90775
2.372,-0.897942
2.374,-0.886329
2.376,-0.872932
2.378,-0.857778
2.38,-0.840897
2.382,-0.822323
2.384,-0.802092
2.386,-0.780246
2.388,-0.756827
2.39,-0.731882
2.392,-0.705462
2.394,-0.677618
2.396,-0.648407
2.398,-0.617888
2.4,-0.586121
2.402,-0.553171
2.404,-0.519104
2.406,-0.483987
2.408,-0.447893
2.41,-0.410893
2.412,-0.373062
2.414,-0.334477
2.416,-0.295215
2.418,-0.255355
2.42,-0.214978
2.422,-0.174166
2.424,-0.133001
2.426,-0.0915669
2.428,-0.0499466
2.43,-0.00822499
2.432,0.0335135
2.434,0.0751842
2.436,0.116703
2.438,0.157985
2.44,0.198946
2.442,0.239504
2.444,0.279575
2.446,0.319079
2.448,0.357935
2.45,0.396064
2.452,0.433388
2.454,0.469831
2.456,0.505318
2.458,0.539778
2.46,0.57314
